Node Number	X Location (in)	Y Location (in)	Z Location (in)	Maximum Principal Stress (psi)
1	22.	2.1818	0.	398.48
2	22.	2.3636	0.	227.64
3	22.	2.5455	0.	182.75
4	22.	2.7273	0.	161.63
5	22.	2.9091	0.	152.85
6	22.	3.0909	0.	152.85
7	22.	3.2727	0.	161.63
8	22.	3.4545	0.	182.75
9	22.	3.6364	0.	227.64
10	22.	3.8182	0.	398.48
11	22.35	2.	0.	-26.017
12	22.533	2.	0.	9.3344
13	22.717	2.	0.	-1.4822
14	22.9	2.	0.	0.56051
15	23.083	2.	0.	7.8261e-002
16	23.267	2.	0.	0.21246
17	23.45	2.	0.	0.21708
18	23.633	2.	0.	0.51229
19	23.817	2.	0.	4.7812
20	23.817	4.	0.	4.7812
21	23.633	4.	0.	0.51229
22	23.45	4.	0.	0.21708
23	23.267	4.	0.	0.21246
24	23.083	4.	0.	7.8259e-002
25	22.9	4.	0.	0.56051
26	22.717	4.	0.	-1.4822
27	22.533	4.	0.	9.3344
28	22.35	4.	0.	-26.017
29	21.815	5.8182	0.	20.196
30	21.815	5.6364	0.	54.197
31	21.815	5.4545	0.	101.84
32	21.815	5.2727	0.	158.5
33	21.815	5.0909	0.	224.25
34	21.815	4.9091	0.	300.95
35	21.815	4.7273	0.	392.6
36	21.815	4.5455	0.	505.06
37	21.815	4.3636	0.	655.66
38	21.815	4.1818	0.	814.61
39	21.815	4.	0.	686.08
40	21.815	3.8182	0.	395.34
41	21.815	3.6364	0.	257.84
42	21.815	3.4545	0.	203.47
43	21.815	3.2727	0.	180.42
44	21.815	3.0909	0.	170.6
45	21.815	2.9091	0.	170.6
46	21.815	2.7273	0.	180.42
47	21.815	2.5455	0.	203.47
48	21.815	2.3636	0.	257.84
49	21.815	2.1818	0.	395.34
50	21.815	2.	0.	686.08
51	21.815	1.8182	0.	814.61
52	21.815	1.6364	0.	655.66
53	21.815	1.4545	0.	505.06
54	21.815	1.2727	0.	392.6
55	21.815	1.0909	0.	300.95
56	21.815	0.90909	0.	224.25
57	21.815	0.72727	0.	158.5
58	21.815	0.54545	0.	101.84
59	21.815	0.36364	0.	54.197
60	21.815	0.18182	0.	20.196
61	21.63	5.8182	0.	16.463
62	21.63	5.6364	0.	42.153
63	21.63	5.4545	0.	80.345
64	21.63	5.2727	0.	127.94
65	21.63	5.0909	0.	183.65
66	21.63	4.9091	0.	247.3
67	21.63	4.7273	0.	319.43
68	21.63	4.5455	0.	397.18
69	21.63	4.3636	0.	475.07
70	21.63	4.1818	0.	509.37
71	21.63	4.	0.	442.51
72	21.63	3.8182	0.	330.28
73	21.63	3.6364	0.	247.38
74	21.63	3.4545	0.	204.41
75	21.63	3.2727	0.	183.25
76	21.63	3.0909	0.	174.46
77	21.63	2.9091	0.	174.46
78	21.63	2.7273	0.	183.25
79	21.63	2.5455	0.	204.41
80	21.63	2.3636	0.	247.38
81	21.63	2.1818	0.	330.28
82	21.63	2.	0.	442.51
83	21.63	1.8182	0.	509.37
84	21.63	1.6364	0.	475.07
85	21.63	1.4545	0.	397.18
86	21.63	1.2727	0.	319.43
87	21.63	1.0909	0.	247.3
88	21.63	0.90909	0.	183.65
89	21.63	0.72727	0.	127.94
90	21.63	0.54545	0.	80.345
91	21.63	0.36364	0.	42.153
92	21.63	0.18182	0.	16.463
93	21.445	5.8182	0.	17.37
94	21.445	5.6364	0.	41.972
95	21.445	5.4545	0.	74.8
96	21.445	5.2727	0.	115.23
97	21.445	5.0909	0.	162.09
98	21.445	4.9091	0.	214.05
99	21.445	4.7273	0.	268.82
100	21.445	4.5455	0.	321.84
101	21.445	4.3636	0.	361.03
102	21.445	4.1818	0.	368.19
103	21.445	4.	0.	334.5
104	21.445	3.8182	0.	277.82
105	21.445	3.6364	0.	228.02
106	21.445	3.4545	0.	196.02
107	21.445	3.2727	0.	178.36
108	21.445	3.0909	0.	170.72
109	21.445	2.9091	0.	170.72
110	21.445	2.7273	0.	178.36
111	21.445	2.5455	0.	196.02
112	21.445	2.3636	0.	228.02
113	21.445	2.1818	0.	277.82
114	21.445	2.	0.	334.5
115	21.445	1.8182	0.	368.19
116	21.445	1.6364	0.	361.03
117	21.445	1.4545	0.	321.84
118	21.445	1.2727	0.	268.82
119	21.445	1.0909	0.	214.05
120	21.445	0.90909	0.	162.09
121	21.445	0.72727	0.	115.23
122	21.445	0.54545	0.	74.8
123	21.445	0.36364	0.	41.972
124	21.445	0.18182	0.	17.37
125	21.261	5.8182	0.	18.608
126	21.261	5.6364	0.	43.208
127	21.261	5.4545	0.	72.673
128	21.261	5.2727	0.	107.22
129	21.261	5.0909	0.	146.01
130	21.261	4.9091	0.	187.35
131	21.261	4.7273	0.	228.35
132	21.261	4.5455	0.	264.17
133	21.261	4.3636	0.	287.35
134	21.261	4.1818	0.	289.79
135	21.261	4.	0.	270.9
136	21.261	3.8182	0.	239.38
137	21.261	3.6364	0.	207.87
138	21.261	3.4545	0.	184.53
139	21.261	3.2727	0.	170.4
140	21.261	3.0909	0.	163.91
141	21.261	2.9091	0.	163.91
142	21.261	2.7273	0.	170.4
143	21.261	2.5455	0.	184.53
144	21.261	2.3636	0.	207.87
145	21.261	2.1818	0.	239.38
146	21.261	2.	0.	270.9
147	21.261	1.8182	0.	289.79
148	21.261	1.6364	0.	287.35
149	21.261	1.4545	0.	264.17
150	21.261	1.2727	0.	228.35
151	21.261	1.0909	0.	187.35
152	21.261	0.90909	0.	146.01
153	21.261	0.72727	0.	107.22
154	21.261	0.54545	0.	72.673
155	21.261	0.36364	0.	43.208
156	21.261	0.18182	0.	18.608
157	21.076	5.8182	0.	19.599
158	21.076	5.6364	0.	43.924
159	21.076	5.4545	0.	70.832
160	21.076	5.2727	0.	100.63
161	21.076	5.0909	0.	132.7
162	21.076	4.9091	0.	165.42
163	21.076	4.7273	0.	196.23
164	21.076	4.5455	0.	221.42
165	21.076	4.3636	0.	236.6
166	21.076	4.1818	0.	238.65
167	21.076	4.	0.	227.88
168	21.076	3.8182	0.	209.08
169	21.076	3.6364	0.	188.95
170	21.076	3.4545	0.	172.41
171	21.076	3.2727	0.	161.45
172	21.076	3.0909	0.	156.14
173	21.076	2.9091	0.	156.14
174	21.076	2.7273	0.	161.45
175	21.076	2.5455	0.	172.41
176	21.076	2.3636	0.	188.95
177	21.076	2.1818	0.	209.08
178	21.076	2.	0.	227.88
179	21.076	1.8182	0.	238.65
180	21.076	1.6364	0.	236.6
181	21.076	1.4545	0.	221.42
182	21.076	1.2727	0.	196.23
183	21.076	1.0909	0.	165.42
184	21.076	0.90909	0.	132.7
185	21.076	0.72727	0.	100.63
186	21.076	0.54545	0.	70.832
187	21.076	0.36364	0.	43.924
188	21.076	0.18182	0.	19.599
189	20.891	5.8182	0.	20.36
190	20.891	5.6364	0.	43.869
191	20.891	5.4545	0.	68.508
192	20.891	5.2727	0.	94.434
193	20.891	5.0909	0.	121.13
194	20.891	4.9091	0.	147.27
195	20.891	4.7273	0.	170.87
196	20.891	4.5455	0.	189.45
197	20.891	4.3636	0.	200.55
198	20.891	4.1818	0.	202.76
199	20.891	4.	0.	196.75
200	20.891	3.8182	0.	185.27
201	20.891	3.6364	0.	172.12
202	20.891	3.4545	0.	160.53
203	20.891	3.2727	0.	152.33
204	20.891	3.0909	0.	148.17
205	20.891	2.9091	0.	148.17
206	20.891	2.7273	0.	152.33
207	20.891	2.5455	0.	160.53
208	20.891	2.3636	0.	172.12
209	20.891	2.1818	0.	185.27
210	20.891	2.	0.	196.75
211	20.891	1.8182	0.	202.76
212	20.891	1.6364	0.	200.55
213	20.891	1.4545	0.	189.45
214	20.891	1.2727	0.	170.87
215	20.891	1.0909	0.	147.27
216	20.891	0.90909	0.	121.13
217	20.891	0.72727	0.	94.434
218	20.891	0.54545	0.	68.508
219	20.891	0.36364	0.	43.869
220	20.891	0.18182	0.	20.36
221	20.706	5.8182	0.	20.92
222	20.706	5.6364	0.	43.133
223	20.706	5.4545	0.	65.617
224	20.706	5.2727	0.	88.313
225	20.706	5.0909	0.	110.78
226	20.706	4.9091	0.	132.02
227	20.706	4.7273	0.	150.6
228	20.706	4.5455	0.	164.95
229	20.706	4.3636	0.	173.66
230	20.706	4.1818	0.	176.16
231	20.706	4.	0.	173.02
232	20.706	3.8182	0.	165.98
233	20.706	3.6364	0.	157.37
234	20.706	3.4545	0.	149.34
235	20.706	3.2727	0.	143.38
236	20.706	3.0909	0.	140.25
237	20.706	2.9091	0.	140.25
238	20.706	2.7273	0.	143.38
239	20.706	2.5455	0.	149.34
240	20.706	2.3636	0.	157.37
241	20.706	2.1818	0.	165.98
242	20.706	2.	0.	173.02
243	20.706	1.8182	0.	176.16
244	20.706	1.6364	0.	173.66
245	20.706	1.4545	0.	164.95
246	20.706	1.2727	0.	150.6
247	20.706	1.0909	0.	132.02
248	20.706	0.90909	0.	110.78
249	20.706	0.72727	0.	88.313
250	20.706	0.54545	0.	65.617
251	20.706	0.36364	0.	43.133
252	20.706	0.18182	0.	20.92
253	20.521	5.8182	0.	21.32
254	20.521	5.6364	0.	41.905
255	20.521	5.4545	0.	62.321
256	20.521	5.2727	0.	82.286
257	20.521	5.0909	0.	101.44
258	20.521	4.9091	0.	119.03
259	20.521	4.7273	0.	134.09
260	20.521	4.5455	0.	145.63
261	20.521	4.3636	0.	152.87
262	20.521	4.1818	0.	155.58
263	20.521	4.	0.	154.26
264	20.521	3.8182	0.	150.05
265	20.521	3.6364	0.	144.46
266	20.521	3.4545	0.	138.99
267	20.521	3.2727	0.	134.77
268	20.521	3.0909	0.	132.5
269	20.521	2.9091	0.	132.5
270	20.521	2.7273	0.	134.77
271	20.521	2.5455	0.	138.99
272	20.521	2.3636	0.	144.46
273	20.521	2.1818	0.	150.05
274	20.521	2.	0.	154.26
275	20.521	1.8182	0.	155.58
276	20.521	1.6364	0.	152.87
277	20.521	1.4545	0.	145.63
278	20.521	1.2727	0.	134.09
279	20.521	1.0909	0.	119.03
280	20.521	0.90909	0.	101.44
281	20.521	0.72727	0.	82.286
282	20.521	0.54545	0.	62.321
283	20.521	0.36364	0.	41.905
284	20.521	0.18182	0.	21.32
285	20.336	5.8182	0.	21.598
286	20.336	5.6364	0.	40.371
287	20.336	5.4545	0.	58.818
288	20.336	5.2727	0.	76.453
289	20.336	5.0909	0.	92.967
290	20.336	4.9091	0.	107.82
291	20.336	4.7273	0.	120.36
292	20.336	4.5455	0.	129.98
293	20.336	4.3636	0.	136.25
294	20.336	4.1818	0.	139.11
295	20.336	4.	0.	138.97
296	20.336	3.8182	0.	136.63
297	20.336	3.6364	0.	133.11
298	20.336	3.4545	0.	129.47
299	20.336	3.2727	0.	126.56
300	20.336	3.0909	0.	124.97
301	20.336	2.9091	0.	124.97
302	20.336	2.7273	0.	126.56
303	20.336	2.5455	0.	129.47
304	20.336	2.3636	0.	133.11
305	20.336	2.1818	0.	136.63
306	20.336	2.	0.	138.97
307	20.336	1.8182	0.	139.11
308	20.336	1.6364	0.	136.25
309	20.336	1.4545	0.	129.98
310	20.336	1.2727	0.	120.36
311	20.336	1.0909	0.	107.82
312	20.336	0.90909	0.	92.967
313	20.336	0.72727	0.	76.453
314	20.336	0.54545	0.	58.818
315	20.336	0.36364	0.	40.371
316	20.336	0.18182	0.	21.598
317	20.151	5.8182	0.	21.783
318	20.151	5.6364	0.	38.683
319	20.151	5.4545	0.	55.282
320	20.151	5.2727	0.	70.909
321	20.151	5.0909	0.	85.299
322	20.151	4.9091	0.	98.056
323	20.151	4.7273	0.	108.75
324	20.151	4.5455	0.	117.
325	20.151	4.3636	0.	122.6
326	20.151	4.1818	0.	125.56
327	20.151	4.	0.	126.21
328	20.151	3.8182	0.	125.13
329	20.151	3.6364	0.	123.05
330	20.151	3.4545	0.	120.73
331	20.151	3.2727	0.	118.79
332	20.151	3.0909	0.	117.71
333	20.151	2.9091	0.	117.71
334	20.151	2.7273	0.	118.79
335	20.151	2.5455	0.	120.73
336	20.151	2.3636	0.	123.05
337	20.151	2.1818	0.	125.13
338	20.151	2.	0.	126.21
339	20.151	1.8182	0.	125.56
340	20.151	1.6364	0.	122.6
341	20.151	1.4545	0.	117.
342	20.151	1.2727	0.	108.75
343	20.151	1.0909	0.	98.056
344	20.151	0.90909	0.	85.299
345	20.151	0.72727	0.	70.909
346	20.151	0.54545	0.	55.282
347	20.151	0.36364	0.	38.683
348	20.151	0.18182	0.	21.783
349	19.966	5.8182	0.	21.898
350	19.966	5.6364	0.	36.953
351	19.966	5.4545	0.	51.839
352	19.966	5.2727	0.	65.723
353	19.966	5.0909	0.	78.372
354	19.966	4.9091	0.	89.49
355	19.966	4.7273	0.	98.788
356	19.966	4.5455	0.	106.04
357	19.966	4.3636	0.	111.13
358	19.966	4.1818	0.	114.14
359	19.966	4.	0.	115.33
360	19.966	3.8182	0.	115.13
361	19.966	3.6364	0.	114.06
362	19.966	3.4545	0.	112.68
363	19.966	3.2727	0.	111.47
364	19.966	3.0909	0.	110.77
365	19.966	2.9091	0.	110.77
366	19.966	2.7273	0.	111.47
367	19.966	2.5455	0.	112.68
368	19.966	2.3636	0.	114.06
369	19.966	2.1818	0.	115.13
370	19.966	2.	0.	115.33
371	19.966	1.8182	0.	114.14
372	19.966	1.6364	0.	111.13
373	19.966	1.4545	0.	106.04
374	19.966	1.2727	0.	98.788
375	19.966	1.0909	0.	89.49
376	19.966	0.90909	0.	78.372
377	19.966	0.72727	0.	65.723
378	19.966	0.54545	0.	51.839
379	19.966	0.36364	0.	36.953
380	19.966	0.18182	0.	21.898
381	19.782	5.8182	0.	21.959
382	19.782	5.6364	0.	35.254
383	19.782	5.4545	0.	48.572
384	19.782	5.2727	0.	60.935
385	19.782	5.0909	0.	72.13
386	19.782	4.9091	0.	81.931
387	19.782	4.7273	0.	90.143
388	19.782	4.5455	0.	96.626
389	19.782	4.3636	0.	101.34
390	19.782	4.1818	0.	104.36
391	19.782	4.	0.	105.91
392	19.782	3.8182	0.	106.31
393	19.782	3.6364	0.	105.96
394	19.782	3.4545	0.	105.26
395	19.782	3.2727	0.	104.57
396	19.782	3.0909	0.	104.16
397	19.782	2.9091	0.	104.16
398	19.782	2.7273	0.	104.57
399	19.782	2.5455	0.	105.26
400	19.782	2.3636	0.	105.96
401	19.782	2.1818	0.	106.31
402	19.782	2.	0.	105.91
403	19.782	1.8182	0.	104.36
404	19.782	1.6364	0.	101.34
405	19.782	1.4545	0.	96.626
406	19.782	1.2727	0.	90.143
407	19.782	1.0909	0.	81.931
408	19.782	0.90909	0.	72.13
409	19.782	0.72727	0.	60.935
410	19.782	0.54545	0.	48.572
411	19.782	0.36364	0.	35.254
412	19.782	0.18182	0.	21.959
413	19.597	5.8182	0.	21.975
414	19.597	5.6364	0.	33.634
415	19.597	5.4545	0.	45.527
416	19.597	5.2727	0.	56.554
417	19.597	5.0909	0.	66.516
418	19.597	4.9091	0.	75.236
419	19.597	4.7273	0.	82.574
420	19.597	4.5455	0.	88.446
421	19.597	4.3636	0.	92.844
422	19.597	4.1818	0.	95.851
423	19.597	4.	0.	97.64
424	19.597	3.8182	0.	98.463
425	19.597	3.6364	0.	98.617
426	19.597	3.4545	0.	98.404
427	19.597	3.2727	0.	98.094
428	19.597	3.0909	0.	97.886
429	19.597	2.9091	0.	97.886
430	19.597	2.7273	0.	98.094
431	19.597	2.5455	0.	98.404
432	19.597	2.3636	0.	98.616
433	19.597	2.1818	0.	98.463
434	19.597	2.	0.	97.64
435	19.597	1.8182	0.	95.851
436	19.597	1.6364	0.	92.844
437	19.597	1.4545	0.	88.446
438	19.597	1.2727	0.	82.574
439	19.597	1.0909	0.	75.236
440	19.597	0.90909	0.	66.516
441	19.597	0.72727	0.	56.554
442	19.597	0.54545	0.	45.527
443	19.597	0.36364	0.	33.634
444	19.597	0.18182	0.	21.975
445	19.412	5.8182	0.	21.955
446	19.412	5.6364	0.	32.116
447	19.412	5.4545	0.	42.726
448	19.412	5.2727	0.	52.575
449	19.412	5.0909	0.	61.477
450	19.412	4.9091	0.	69.287
451	19.412	4.7273	0.	75.902
452	19.412	4.5455	0.	81.269
453	19.412	4.3636	0.	85.396
454	19.412	4.1818	0.	88.358
455	19.412	4.	0.	90.298
456	19.412	3.8182	0.	91.41
457	19.412	3.6364	0.	91.919
458	19.412	3.4545	0.	92.053
459	19.412	3.2727	0.	92.016
460	19.412	3.0909	0.	91.958
461	19.412	2.9091	0.	91.958
462	19.412	2.7273	0.	92.016
463	19.412	2.5455	0.	92.053
464	19.412	2.3636	0.	91.918
465	19.412	2.1818	0.	91.41
466	19.412	2.	0.	90.298
467	19.412	1.8182	0.	88.358
468	19.412	1.6364	0.	85.396
469	19.412	1.4545	0.	81.269
470	19.412	1.2727	0.	75.902
471	19.412	1.0909	0.	69.287
472	19.412	0.90909	0.	61.477
473	19.412	0.72727	0.	52.575
474	19.412	0.54545	0.	42.726
475	19.412	0.36364	0.	32.116
476	19.412	0.18182	0.	21.955
477	19.227	5.8182	0.	21.904
478	19.227	5.6364	0.	30.711
479	19.227	5.4545	0.	40.169
480	19.227	5.2727	0.	48.977
481	19.227	5.0909	0.	56.958
482	19.227	4.9091	0.	63.987
483	19.227	4.7273	0.	69.987
484	19.227	4.5455	0.	74.921
485	19.227	4.3636	0.	78.803
486	19.227	4.1818	0.	81.7
487	19.227	4.	0.	83.724
488	19.227	3.8182	0.	85.027
489	19.227	3.6364	0.	85.781
490	19.227	3.4545	0.	86.161
491	19.227	3.2727	0.	86.318
492	19.227	3.0909	0.	86.366
493	19.227	2.9091	0.	86.366
494	19.227	2.7273	0.	86.318
495	19.227	2.5455	0.	86.161
496	19.227	2.3636	0.	85.781
497	19.227	2.1818	0.	85.027
498	19.227	2.	0.	83.724
499	19.227	1.8182	0.	81.7
500	19.227	1.6364	0.	78.803
501	19.227	1.4545	0.	74.921
502	19.227	1.2727	0.	69.987
503	19.227	1.0909	0.	63.987
504	19.227	0.90909	0.	56.958
505	19.227	0.72727	0.	48.977
506	19.227	0.54545	0.	40.169
507	19.227	0.36364	0.	30.711
508	19.227	0.18182	0.	21.904
509	19.042	5.8182	0.	21.826
510	19.042	5.6364	0.	29.419
511	19.042	5.4545	0.	37.848
512	19.042	5.2727	0.	45.734
513	19.042	5.0909	0.	52.905
514	19.042	4.9091	0.	59.255
515	19.042	4.7273	0.	64.72
516	19.042	4.5455	0.	69.272
517	19.042	4.3636	0.	72.926
518	19.042	4.1818	0.	75.737
519	19.042	4.	0.	77.795
520	19.042	3.8182	0.	79.217
521	19.042	3.6364	0.	80.137
522	19.042	3.4545	0.	80.685
523	19.042	3.2727	0.	80.978
524	19.042	3.0909	0.	81.101
525	19.042	2.9091	0.	81.101
526	19.042	2.7273	0.	80.978
527	19.042	2.5455	0.	80.685
528	19.042	2.3636	0.	80.137
529	19.042	2.1818	0.	79.217
530	19.042	2.	0.	77.795
531	19.042	1.8182	0.	75.737
532	19.042	1.6364	0.	72.926
533	19.042	1.4545	0.	69.272
534	19.042	1.2727	0.	64.72
535	19.042	1.0909	0.	59.255
536	19.042	0.90909	0.	52.905
537	19.042	0.72727	0.	45.734
538	19.042	0.54545	0.	37.848
539	19.042	0.36364	0.	29.419
540	19.042	0.18182	0.	21.826
541	18.857	5.8182	0.	21.724
542	18.857	5.6364	0.	28.237
543	18.857	5.4545	0.	35.749
544	18.857	5.2727	0.	42.814
545	18.857	5.0909	0.	49.269
546	18.857	4.9091	0.	55.02
547	18.857	4.7273	0.	60.01
548	18.857	4.5455	0.	64.218
549	18.857	4.3636	0.	67.656
550	18.857	4.1818	0.	70.365
551	18.857	4.	0.	72.419
552	18.857	3.8182	0.	73.906
553	18.857	3.6364	0.	74.93
554	18.857	3.4545	0.	75.591
555	18.857	3.2727	0.	75.976
556	18.857	3.0909	0.	76.152
557	18.857	2.9091	0.	76.152
558	18.857	2.7273	0.	75.976
559	18.857	2.5455	0.	75.591
560	18.857	2.3636	0.	74.93
561	18.857	2.1818	0.	73.906
562	18.857	2.	0.	72.419
563	18.857	1.8182	0.	70.365
564	18.857	1.6364	0.	67.656
565	18.857	1.4545	0.	64.218
566	18.857	1.2727	0.	60.01
567	18.857	1.0909	0.	55.02
568	18.857	0.90909	0.	49.269
569	18.857	0.72727	0.	42.814
570	18.857	0.54545	0.	35.749
571	18.857	0.36364	0.	28.237
572	18.857	0.18182	0.	21.724
573	18.672	5.8182	0.	21.601
574	18.672	5.6364	0.	27.156
575	18.672	5.4545	0.	33.851
576	18.672	5.2727	0.	40.187
577	18.672	5.0909	0.	46.005
578	18.672	4.9091	0.	51.221
579	18.672	4.7273	0.	55.785
580	18.672	4.5455	0.	59.678
581	18.672	4.3636	0.	62.905
582	18.672	4.1818	0.	65.501
583	18.672	4.	0.	67.521
584	18.672	3.8182	0.	69.033
585	18.672	3.6364	0.	70.117
586	18.672	3.4545	0.	70.848
587	18.672	3.2727	0.	71.293
588	18.672	3.0909	0.	71.503
589	18.672	2.9091	0.	71.503
590	18.672	2.7273	0.	71.293
591	18.672	2.5455	0.	70.848
592	18.672	2.3636	0.	70.117
593	18.672	2.1818	0.	69.033
594	18.672	2.	0.	67.521
595	18.672	1.8182	0.	65.501
596	18.672	1.6364	0.	62.905
597	18.672	1.4545	0.	59.678
598	18.672	1.2727	0.	55.785
599	18.672	1.0909	0.	51.221
600	18.672	0.90909	0.	46.005
601	18.672	0.72727	0.	40.186
602	18.672	0.54545	0.	33.851
603	18.672	0.36364	0.	27.156
604	18.672	0.18182	0.	21.601
605	18.487	5.8182	0.	21.46
606	18.487	5.6364	0.	26.167
607	18.487	5.4545	0.	32.135
608	18.487	5.2727	0.	37.82
609	18.487	5.0909	0.	43.069
610	18.487	4.9091	0.	47.805
611	18.487	4.7273	0.	51.982
612	18.487	4.5455	0.	55.582
613	18.487	4.3636	0.	58.606
614	18.487	4.1818	0.	61.079
615	18.487	4.	0.	63.042
616	18.487	3.8182	0.	64.549
617	18.487	3.6364	0.	65.658
618	18.487	3.4545	0.	66.428
619	18.487	3.2727	0.	66.91
620	18.487	3.0909	0.	67.141
621	18.487	2.9091	0.	67.141
622	18.487	2.7273	0.	66.91
623	18.487	2.5455	0.	66.428
624	18.487	2.3636	0.	65.658
625	18.487	2.1818	0.	64.549
626	18.487	2.	0.	63.042
627	18.487	1.8182	0.	61.079
628	18.487	1.6364	0.	58.606
629	18.487	1.4545	0.	55.582
630	18.487	1.2727	0.	51.982
631	18.487	1.0909	0.	47.804
632	18.487	0.90909	0.	43.069
633	18.487	0.72727	0.	37.82
634	18.487	0.54545	0.	32.135
635	18.487	0.36364	0.	26.167
636	18.487	0.18182	0.	21.46
637	18.303	5.8182	0.	21.303
638	18.303	5.6364	0.	25.261
639	18.303	5.4545	0.	30.582
640	18.303	5.2727	0.	35.686
641	18.303	5.0909	0.	40.423
642	18.303	4.9091	0.	44.725
643	18.303	4.7273	0.	48.549
644	18.303	4.5455	0.	51.874
645	18.303	4.3636	0.	54.701
646	18.303	4.1818	0.	57.044
647	18.303	4.	0.	58.935
648	18.303	3.8182	0.	60.413
649	18.303	3.6364	0.	61.522
650	18.303	3.4545	0.	62.308
651	18.303	3.2727	0.	62.808
652	18.303	3.0909	0.	63.05
653	18.303	2.9091	0.	63.05
654	18.303	2.7273	0.	62.808
655	18.303	2.5455	0.	62.308
656	18.303	2.3636	0.	61.522
657	18.303	2.1818	0.	60.413
658	18.303	2.	0.	58.935
659	18.303	1.8182	0.	57.044
660	18.303	1.6364	0.	54.701
661	18.303	1.4545	0.	51.874
662	18.303	1.2727	0.	48.549
663	18.303	1.0909	0.	44.725
664	18.303	0.90909	0.	40.423
665	18.303	0.72727	0.	35.686
666	18.303	0.54545	0.	30.582
667	18.303	0.36364	0.	25.261
668	18.303	0.18182	0.	21.303
669	18.118	5.8182	0.	21.131
670	18.118	5.6364	0.	24.428
671	18.118	5.4545	0.	29.173
672	18.118	5.2727	0.	33.756
673	18.118	5.0909	0.	38.033
674	18.118	4.9091	0.	41.941
675	18.118	4.7273	0.	45.439
676	18.118	4.5455	0.	48.508
677	18.118	4.3636	0.	51.142
678	18.118	4.1818	0.	53.352
679	18.118	4.	0.	55.158
680	18.118	3.8182	0.	56.59
681	18.118	3.6364	0.	57.682
682	18.118	3.4545	0.	58.465
683	18.118	3.2727	0.	58.969
684	18.118	3.0909	0.	59.215
685	18.118	2.9091	0.	59.215
686	18.118	2.7273	0.	58.969
687	18.118	2.5455	0.	58.465
688	18.118	2.3636	0.	57.682
689	18.118	2.1818	0.	56.59
690	18.118	2.	0.	55.158
691	18.118	1.8182	0.	53.352
692	18.118	1.6364	0.	51.142
693	18.118	1.4545	0.	48.508
694	18.118	1.2727	0.	45.439
695	18.118	1.0909	0.	41.941
696	18.118	0.90909	0.	38.033
697	18.118	0.72727	0.	33.756
698	18.118	0.54545	0.	29.173
699	18.118	0.36364	0.	24.429
700	18.118	0.18182	0.	21.131
701	17.933	5.8182	0.	20.947
702	17.933	5.6364	0.	23.661
703	17.933	5.4545	0.	27.891
704	17.933	5.2727	0.	32.007
705	17.933	5.0909	0.	35.869
706	17.933	4.9091	0.	39.417
707	17.933	4.7273	0.	42.615
708	17.933	4.5455	0.	45.442
709	17.933	4.3636	0.	47.89
710	17.933	4.1818	0.	49.964
711	17.933	4.	0.	51.678
712	17.933	3.8182	0.	53.052
713	17.933	3.6364	0.	54.111
714	17.933	3.4545	0.	54.879
715	17.933	3.2727	0.	55.378
716	17.933	3.0909	0.	55.623
717	17.933	2.9091	0.	55.623
718	17.933	2.7273	0.	55.378
719	17.933	2.5455	0.	54.879
720	17.933	2.3636	0.	54.111
721	17.933	2.1818	0.	53.052
722	17.933	2.	0.	51.678
723	17.933	1.8182	0.	49.964
724	17.933	1.6364	0.	47.89
